# landscape information
# global minimum energy found in bin centered at: 3.11 with energy: -18.05
# columns are: bin number, min bin value, max bin value, minimum energy
0  0.00  0.20  -14.11
1  0.20  0.40  -14.47
2  0.40  0.60  -15.06
3  0.60  0.80  -15.62
4  0.80  1.00  NA
5  1.00  1.20  -15.91
6  1.20  1.41  -16.98
7  1.41  1.61  -16.99
8  1.61  1.81  -16.95
9  1.81  2.01  -16.13
10  2.01  2.21  -15.69
11  2.21  2.41  -16.25
12  2.41  2.61  -16.25
13  2.61  2.81  -17.59
14  2.81  3.01  -18.05
15  3.01  3.21  -18.05
16  3.21  3.41  -17.84
17  3.41  3.61  -17.75
18  3.61  3.82  -17.03
19  3.82  4.02  NA
20  4.02  4.22  NA
21  4.22  4.42  NA
22  4.42  4.62  NA
23  4.62  4.82  NA
24  4.82  5.02  NA
25  5.02  5.22  NA
26  5.22  5.42  NA
27  5.42  5.62  NA
28  5.62  5.82  NA
29  5.82  6.02  NA
30  6.02  6.22  NA
31  6.22  6.43  NA
32  6.43  6.63  NA
33  6.63  6.83  NA
34  6.83  7.03  NA
35  7.03  7.23  NA
36  7.23  7.43  NA
37  7.43  7.63  NA
38  7.63  7.83  NA
39  7.83  8.03  NA
40  8.03  8.23  NA
41  8.23  8.43  NA
42  8.43  8.63  NA
43  8.63  8.84  NA
44  8.84  9.04  NA
45  9.04  9.24  NA
46  9.24  9.44  NA
47  9.44  9.64  NA
48  9.64  9.84  NA
49  9.84  10.04  NA
50  10.04  10.24  NA
51  10.24  10.44  NA
52  10.44  10.64  NA
53  10.64  10.84  NA
54  10.84  11.04  NA
55  11.04  11.24  NA
56  11.24  11.45  NA
57  11.45  11.65  NA
58  11.65  11.85  NA
59  11.85  12.05  NA
60  12.05  12.25  NA
61  12.25  12.45  NA
62  12.45  12.65  NA
63  12.65  12.85  NA
64  12.85  13.05  NA
65  13.05  13.25  NA
66  13.25  13.45  NA
67  13.45  13.65  NA
68  13.65  13.86  NA
69  13.86  14.06  NA
70  14.06  14.26  NA
71  14.26  14.46  NA
72  14.46  14.66  NA
73  14.66  14.86  NA
74  14.86  15.06  NA
75  15.06  15.26  NA
76  15.26  15.46  NA
77  15.46  15.66  NA
78  15.66  15.86  NA
79  15.86  16.06  NA
80  16.06  16.27  NA
81  16.27  16.47  NA
82  16.47  16.67  NA
83  16.67  16.87  NA
84  16.87  17.07  NA
85  17.07  17.27  NA
86  17.27  17.47  NA
87  17.47  17.67  NA
88  17.67  17.87  NA
89  17.87  18.07  NA
90  18.07  18.27  NA
91  18.27  18.47  NA
92  18.47  18.67  NA
93  18.67  18.88  NA
94  18.88  19.08  NA
95  19.08  19.28  NA
96  19.28  19.48  NA
97  19.48  19.68  NA
98  19.68  19.88  NA
99  19.88  20.08  NA
100  20.08  20.28  NA
101  20.28  20.48  NA
102  20.48  20.68  NA
103  20.68  20.88  NA
104  20.88  21.08  NA
105  21.08  21.29  NA
106  21.29  21.49  NA
107  21.49  21.69  NA
108  21.69  21.89  NA
109  21.89  22.09  NA
110  22.09  22.29  NA
111  22.29  22.49  NA
112  22.49  22.69  NA
113  22.69  22.89  NA
114  22.89  23.09  NA
115  23.09  23.29  NA
116  23.29  23.49  NA
117  23.49  23.69  NA
118  23.69  23.90  NA
119  23.90  24.10  NA
120  24.10  24.30  NA
121  24.30  24.50  NA
122  24.50  24.70  NA
123  24.70  24.90  NA
124  24.90  25.10  NA
125  25.10  25.30  NA
126  25.30  25.50  NA
127  25.50  25.70  NA
128  25.70  25.90  NA
129  25.90  26.10  NA
130  26.10  26.31  NA
131  26.31  26.51  NA
132  26.51  26.71  NA
133  26.71  26.91  NA
134  26.91  27.11  NA
135  27.11  27.31  NA
136  27.31  27.51  NA
137  27.51  27.71  NA
138  27.71  27.91  NA
139  27.91  28.11  NA
140  28.11  28.31  NA
141  28.31  28.51  NA
142  28.51  28.71  NA
143  28.71  28.92  NA
144  28.92  29.12  NA
145  29.12  29.32  NA
146  29.32  29.52  NA
147  29.52  29.72  NA
148  29.72  29.92  NA
149  29.92  30.12  NA
150  30.12  30.32  NA
151  30.32  30.52  NA
152  30.52  30.72  NA
153  30.72  30.92  NA
154  30.92  31.12  NA
155  31.12  31.33  NA
156  31.33  31.53  NA
157  31.53  31.73  NA
158  31.73  31.93  NA
159  31.93  32.13  NA
160  32.13  32.33  NA
161  32.33  32.53  NA
162  32.53  32.73  NA
163  32.73  32.93  NA
164  32.93  33.13  NA
165  33.13  33.33  NA
166  33.33  33.53  NA
167  33.53  33.73  NA
168  33.73  33.94  NA
169  33.94  34.14  NA
170  34.14  34.34  NA
171  34.34  34.54  NA
172  34.54  34.74  NA
173  34.74  34.94  NA
174  34.94  35.14  NA
175  35.14  35.34  NA
176  35.34  35.54  NA
177  35.54  35.74  NA
178  35.74  35.94  NA
179  35.94  36.14  NA
180  36.14  36.35  NA
181  36.35  36.55  NA
182  36.55  36.75  NA
183  36.75  36.95  NA
184  36.95  37.15  NA
185  37.15  37.35  NA
186  37.35  37.55  NA
187  37.55  37.75  NA
188  37.75  37.95  NA
189  37.95  38.15  NA
190  38.15  38.35  NA
191  38.35  38.55  NA
192  38.55  38.76  NA
193  38.76  38.96  NA
194  38.96  39.16  NA
195  39.16  39.36  NA
196  39.36  39.56  NA
197  39.56  39.76  NA
198  39.76  39.96  NA
199  39.96  40.16  NA
200  40.16  40.36  NA
201  40.36  40.56  NA
202  40.56  40.76  NA
203  40.76  40.96  NA
204  40.96  41.16  NA
205  41.16  41.37  NA
206  41.37  41.57  NA
207  41.57  41.77  NA
208  41.77  41.97  NA
209  41.97  42.17  NA
210  42.17  42.37  NA
211  42.37  42.57  NA
212  42.57  42.77  NA
213  42.77  42.97  NA
214  42.97  43.17  NA
215  43.17  43.37  NA
216  43.37  43.57  NA
217  43.57  43.78  NA
218  43.78  43.98  NA
219  43.98  44.18  NA
220  44.18  44.38  NA
221  44.38  44.58  NA
222  44.58  44.78  NA
223  44.78  44.98  NA
224  44.98  45.18  NA
225  45.18  45.38  NA
226  45.38  45.58  NA
227  45.58  45.78  NA
228  45.78  45.98  NA
229  45.98  46.18  NA
230  46.18  46.39  NA
231  46.39  46.59  NA
232  46.59  46.79  NA
233  46.79  46.99  NA
234  46.99  47.19  NA
235  47.19  47.39  NA
236  47.39  47.59  NA
237  47.59  47.79  NA
238  47.79  47.99  NA
239  47.99  48.19  NA
240  48.19  48.39  NA
241  48.39  48.59  NA
242  48.59  48.80  NA
243  48.80  49.00  NA
244  49.00  49.20  NA
245  49.20  49.40  NA
246  49.40  49.60  NA
247  49.60  49.80  NA
248  49.80  50.00  NA
